# radius(km)    T [MeV]
0.000000e+00 1.500000e+01
1.000200e-01 1.500000e+01
2.000400e-01 1.500001e+01
3.000600e-01 1.500001e+01
4.000800e-01 1.500001e+01
5.001000e-01 1.500002e+01
6.001200e-01 1.500003e+01
7.001400e-01 1.500004e+01
8.001600e-01 1.500005e+01
9.001800e-01 1.500008e+01
1.000200e+00 1.500011e+01
1.100220e+00 1.500015e+01
1.200240e+00 1.500021e+01
1.300260e+00 1.500030e+01
1.400280e+00 1.500042e+01
1.500300e+00 1.500058e+01
1.600320e+00 1.500080e+01
1.700340e+00 1.500110e+01
1.800360e+00 1.500151e+01
1.900380e+00 1.500205e+01
2.000400e+00 1.500278e+01
2.100420e+00 1.500374e+01
2.200440e+00 1.500502e+01
2.300460e+00 1.500669e+01
2.400480e+00 1.500887e+01
2.500500e+00 1.501171e+01
2.600520e+00 1.501537e+01
2.700540e+00 1.502009e+01
2.800560e+00 1.502612e+01
2.900580e+00 1.503379e+01
3.000600e+00 1.504350e+01
3.100620e+00 1.505572e+01
3.200640e+00 1.507101e+01
3.300660e+00 1.509005e+01
3.400680e+00 1.511362e+01
3.500700e+00 1.514264e+01
3.600720e+00 1.517819e+01
3.700740e+00 1.522149e+01
3.800760e+00 1.527393e+01
3.900780e+00 1.533710e+01
4.000800e+00 1.541276e+01
4.100820e+00 1.550289e+01
4.200840e+00 1.560964e+01
4.300860e+00 1.573536e+01
4.400880e+00 1.588258e+01
4.500900e+00 1.605400e+01
4.600920e+00 1.625242e+01
4.700940e+00 1.648078e+01
4.800960e+00 1.674203e+01
4.900980e+00 1.703915e+01
5.001000e+00 1.737504e+01
5.101020e+00 1.775246e+01
5.201040e+00 1.817393e+01
5.301060e+00 1.864168e+01
5.401080e+00 1.915752e+01
5.501100e+00 1.972275e+01
5.601120e+00 2.033804e+01
5.701140e+00 2.100340e+01
5.801160e+00 2.171800e+01
5.901180e+00 2.248016e+01
6.001200e+00 2.328723e+01
6.101220e+00 2.413556e+01
6.201240e+00 2.502048e+01
6.301260e+00 2.593628e+01
6.401280e+00 2.687623e+01
6.501300e+00 2.783262e+01
6.601320e+00 2.879683e+01
6.701340e+00 2.975949e+01
6.801360e+00 3.071053e+01
6.901380e+00 3.163941e+01
7.001400e+00 3.253528e+01
7.101420e+00 3.338718e+01
7.201440e+00 3.418427e+01
7.301460e+00 3.491605e+01
7.401480e+00 3.557257e+01
7.501500e+00 3.614471e+01
7.601520e+00 3.662432e+01
7.701540e+00 3.700447e+01
7.801560e+00 3.727958e+01
7.901580e+00 3.744558e+01
8.001600e+00 3.749250e+01
8.101620e+00 3.702963e+01
8.201640e+00 3.657805e+01
8.301660e+00 3.613735e+01
8.401680e+00 3.570714e+01
8.501700e+00 3.528706e+01
8.601720e+00 3.487674e+01
8.701740e+00 3.447586e+01
8.801760e+00 3.408409e+01
8.901780e+00 3.370112e+01
9.001800e+00 3.332667e+01
9.101820e+00 3.296044e+01
9.201840e+00 3.260217e+01
9.301860e+00 3.225161e+01
9.401880e+00 3.190851e+01
9.501900e+00 3.157263e+01
9.601920e+00 3.124375e+01
9.701940e+00 3.092165e+01
9.801960e+00 3.060612e+01
9.901980e+00 3.029697e+01
1.000200e+01 2.999400e+01
1.010202e+01 2.969703e+01
1.020204e+01 2.940588e+01
1.030206e+01 2.912039e+01
1.040208e+01 2.884038e+01
1.050210e+01 2.856571e+01
1.060212e+01 2.829623e+01
1.070214e+01 2.803178e+01
1.080216e+01 2.777222e+01
1.090218e+01 2.751743e+01
1.100220e+01 2.726727e+01
1.110222e+01 2.702162e+01
1.120224e+01 2.678036e+01
1.130226e+01 2.654336e+01
1.140228e+01 2.631053e+01
1.150230e+01 2.608174e+01
1.160232e+01 2.585690e+01
1.170234e+01 2.563590e+01
1.180236e+01 2.541864e+01
1.190238e+01 2.520504e+01
1.200240e+01 2.499500e+01
1.210242e+01 2.478843e+01
1.220244e+01 2.458525e+01
1.230246e+01 2.438537e+01
1.240248e+01 2.418871e+01
1.250250e+01 2.399520e+01
1.260252e+01 2.380476e+01
1.270254e+01 2.361732e+01
1.280256e+01 2.343281e+01
1.290258e+01 2.325116e+01
1.300260e+01 2.307231e+01
1.310262e+01 2.289618e+01
1.320264e+01 2.272273e+01
1.330266e+01 2.255188e+01
1.340268e+01 2.238358e+01
1.350270e+01 2.221778e+01
1.360272e+01 2.205441e+01
1.370274e+01 2.189343e+01
1.380276e+01 2.173478e+01
1.390278e+01 2.157842e+01
1.400280e+01 2.142429e+01
1.410282e+01 2.127234e+01
1.420284e+01 2.112254e+01
1.430286e+01 2.097483e+01
1.440288e+01 2.082917e+01
1.450290e+01 2.068552e+01
1.460292e+01 2.054384e+01
1.470294e+01 2.040408e+01
1.480296e+01 2.026622e+01
1.490298e+01 2.013020e+01
1.500300e+01 1.998500e+01
1.510302e+01 1.949147e+01
1.520304e+01 1.901013e+01
1.530306e+01 1.854068e+01
1.540308e+01 1.808282e+01
1.550310e+01 1.763626e+01
1.560312e+01 1.720074e+01
1.570314e+01 1.677596e+01
1.580316e+01 1.636168e+01
1.590318e+01 1.595763e+01
1.600320e+01 1.556356e+01
1.610322e+01 1.517922e+01
1.620324e+01 1.480437e+01
1.630326e+01 1.443877e+01
1.640328e+01 1.408221e+01
1.650330e+01 1.373445e+01
1.660332e+01 1.339528e+01
1.670334e+01 1.306448e+01
1.680336e+01 1.274185e+01
1.690338e+01 1.242719e+01
1.700340e+01 1.212030e+01
1.710342e+01 1.182099e+01
1.720344e+01 1.152907e+01
1.730346e+01 1.124436e+01
1.740348e+01 1.096669e+01
1.750350e+01 1.069586e+01
1.760352e+01 1.043173e+01
1.770354e+01 1.017412e+01
1.780356e+01 9.922869e+00
1.790358e+01 9.677824e+00
1.800360e+01 9.438831e+00
1.810362e+01 9.205739e+00
1.820364e+01 8.978404e+00
1.830366e+01 8.756682e+00
1.840368e+01 8.540436e+00
1.850370e+01 8.329530e+00
1.860372e+01 8.123833e+00
1.870374e+01 7.923215e+00
1.880376e+01 7.727552e+00
1.890378e+01 7.536720e+00
1.900380e+01 7.350601e+00
1.910382e+01 7.169078e+00
1.920384e+01 6.992038e+00
1.930386e+01 6.819370e+00
1.940388e+01 6.650966e+00
1.950390e+01 6.486720e+00
1.960392e+01 6.326531e+00
1.970394e+01 6.170298e+00
1.980396e+01 6.017922e+00
1.990398e+01 5.869310e+00
2.000400e+01 5.724368e+00
2.010402e+01 5.583005e+00
2.020404e+01 5.445132e+00
2.030406e+01 5.310665e+00
2.040408e+01 5.179518e+00
2.050410e+01 5.051610e+00
2.060412e+01 4.926861e+00
2.070414e+01 4.805192e+00
2.080416e+01 4.686528e+00
2.090418e+01 4.570795e+00
2.100420e+01 4.461711e+00
2.110422e+01 4.440565e+00
2.120424e+01 4.419619e+00
2.130426e+01 4.398870e+00
2.140428e+01 4.378314e+00
2.150430e+01 4.357950e+00
2.160432e+01 4.337774e+00
2.170434e+01 4.317785e+00
2.180436e+01 4.297978e+00
2.190438e+01 4.278353e+00
2.200440e+01 4.258906e+00
2.210442e+01 4.239635e+00
2.220444e+01 4.220537e+00
2.230446e+01 4.201611e+00
2.240448e+01 4.182854e+00
2.250450e+01 4.164263e+00
2.260452e+01 4.145837e+00
2.270454e+01 4.127574e+00
2.280456e+01 4.109470e+00
2.290458e+01 4.091525e+00
2.300460e+01 4.073736e+00
2.310462e+01 4.056101e+00
2.320464e+01 4.038617e+00
2.330466e+01 4.021284e+00
2.340468e+01 4.004099e+00
2.350470e+01 3.987061e+00
2.360472e+01 3.970166e+00
2.370474e+01 3.953415e+00
2.380476e+01 3.936804e+00
2.390478e+01 3.920332e+00
2.400480e+01 3.903997e+00
2.410482e+01 3.887798e+00
2.420484e+01 3.871732e+00
2.430486e+01 3.855799e+00
2.440488e+01 3.839997e+00
2.450490e+01 3.824323e+00
2.460492e+01 3.808777e+00
2.470494e+01 3.793357e+00
2.480496e+01 3.778061e+00
2.490498e+01 3.762889e+00
2.500500e+01 3.747837e+00
2.510502e+01 3.732905e+00
2.520504e+01 3.718092e+00
2.530506e+01 3.703396e+00
2.540508e+01 3.688816e+00
2.550510e+01 3.674350e+00
2.560512e+01 3.659997e+00
2.570514e+01 3.645756e+00
2.580516e+01 3.631625e+00
2.590518e+01 3.617603e+00
2.600520e+01 3.603689e+00
2.610522e+01 3.589882e+00
2.620524e+01 3.576180e+00
2.630526e+01 3.562583e+00
2.640528e+01 3.549088e+00
2.650530e+01 3.535695e+00
2.660532e+01 3.522403e+00
2.670534e+01 3.509211e+00
2.680536e+01 3.496117e+00
2.690538e+01 3.483120e+00
2.700540e+01 3.470219e+00
2.710542e+01 3.457414e+00
2.720544e+01 3.444703e+00
2.730546e+01 3.432085e+00
2.740548e+01 3.419559e+00
2.750550e+01 3.407125e+00
2.760552e+01 3.394780e+00
2.770554e+01 3.382524e+00
2.780556e+01 3.370357e+00
2.790558e+01 3.358277e+00
2.800560e+01 3.346283e+00
2.810562e+01 3.334375e+00
2.820564e+01 3.322551e+00
2.830566e+01 3.310810e+00
2.840568e+01 3.299152e+00
2.850570e+01 3.287576e+00
2.860572e+01 3.276081e+00
2.870574e+01 3.264666e+00
2.880576e+01 3.253331e+00
2.890578e+01 3.242074e+00
2.900580e+01 3.230894e+00
2.910582e+01 3.219791e+00
2.920584e+01 3.208765e+00
2.930586e+01 3.197813e+00
2.940588e+01 3.186936e+00
2.950590e+01 3.176133e+00
2.960592e+01 3.165403e+00
2.970594e+01 3.154745e+00
2.980596e+01 3.144159e+00
2.990598e+01 3.133643e+00
3.000600e+01 3.123197e+00
3.010602e+01 3.112821e+00
3.020604e+01 3.102514e+00
3.030606e+01 3.092275e+00
3.040608e+01 3.082103e+00
3.050610e+01 3.071998e+00
3.060612e+01 3.061958e+00
3.070614e+01 3.051985e+00
3.080616e+01 3.042075e+00
3.090618e+01 3.032231e+00
3.100620e+01 3.022449e+00
3.110622e+01 3.012731e+00
3.120624e+01 3.003074e+00
3.130626e+01 2.993480e+00
3.140628e+01 2.983947e+00
3.150630e+01 2.974474e+00
3.160632e+01 2.965061e+00
3.170634e+01 2.955707e+00
3.180636e+01 2.946413e+00
3.190638e+01 2.937176e+00
3.200640e+01 2.927998e+00
3.210642e+01 2.918876e+00
3.220644e+01 2.909811e+00
3.230646e+01 2.900803e+00
3.240648e+01 2.891850e+00
3.250650e+01 2.882952e+00
3.260652e+01 2.874108e+00
3.270654e+01 2.865319e+00
3.280656e+01 2.856583e+00
3.290658e+01 2.847900e+00
3.300660e+01 2.839270e+00
3.310662e+01 2.830693e+00
3.320664e+01 2.822166e+00
3.330666e+01 2.813691e+00
3.340668e+01 2.805267e+00
3.350670e+01 2.796893e+00
3.360672e+01 2.788569e+00
3.370674e+01 2.780294e+00
3.380676e+01 2.772069e+00
3.390678e+01 2.763892e+00
3.400680e+01 2.755762e+00
3.410682e+01 2.747681e+00
3.420684e+01 2.739647e+00
3.430686e+01 2.731660e+00
3.440688e+01 2.723719e+00
3.450690e+01 2.715824e+00
3.460692e+01 2.707975e+00
3.470694e+01 2.700171e+00
3.480696e+01 2.692412e+00
3.490698e+01 2.684697e+00
3.500700e+01 2.677026e+00
3.510702e+01 2.669400e+00
3.520704e+01 2.661816e+00
3.530706e+01 2.654275e+00
3.540708e+01 2.646778e+00
3.550710e+01 2.639322e+00
3.560712e+01 2.631908e+00
3.570714e+01 2.624536e+00
3.580716e+01 2.617205e+00
3.590718e+01 2.609914e+00
3.600720e+01 2.602665e+00
3.610722e+01 2.595455e+00
3.620724e+01 2.588285e+00
3.630726e+01 2.581155e+00
3.640728e+01 2.574064e+00
3.650730e+01 2.567012e+00
3.660732e+01 2.559998e+00
3.670734e+01 2.553022e+00
3.680736e+01 2.546085e+00
3.690738e+01 2.539185e+00
3.700740e+01 2.532322e+00
3.710742e+01 2.525497e+00
3.720744e+01 2.518708e+00
3.730746e+01 2.511955e+00
3.740748e+01 2.505239e+00
3.750750e+01 2.498558e+00
3.760752e+01 2.491913e+00
3.770754e+01 2.485303e+00
3.780756e+01 2.478728e+00
3.790758e+01 2.472188e+00
3.800760e+01 2.465682e+00
3.810762e+01 2.459211e+00
3.820764e+01 2.452773e+00
3.830766e+01 2.446369e+00
3.840768e+01 2.439998e+00
3.850770e+01 2.433660e+00
3.860772e+01 2.427356e+00
3.870774e+01 2.421083e+00
3.880776e+01 2.414843e+00
3.890778e+01 2.408636e+00
3.900780e+01 2.402460e+00
3.910782e+01 2.396315e+00
3.920784e+01 2.390202e+00
3.930786e+01 2.384120e+00
3.940788e+01 2.378069e+00
3.950790e+01 2.372049e+00
3.960792e+01 2.366059e+00
3.970794e+01 2.360099e+00
3.980796e+01 2.354169e+00
3.990798e+01 2.348269e+00
4.000800e+01 2.342398e+00
4.010802e+01 2.336557e+00
4.020804e+01 2.330744e+00
4.030806e+01 2.324961e+00
4.040808e+01 2.319206e+00
4.050810e+01 2.313480e+00
4.060812e+01 2.307781e+00
4.070814e+01 2.302111e+00
4.080816e+01 2.296469e+00
4.090818e+01 2.290854e+00
4.100820e+01 2.285266e+00
4.110822e+01 2.279706e+00
4.120824e+01 2.274173e+00
4.130826e+01 2.268666e+00
4.140828e+01 2.263187e+00
4.150830e+01 2.257733e+00
4.160832e+01 2.252306e+00
4.170834e+01 2.246905e+00
4.180836e+01 2.241529e+00
4.190838e+01 2.236180e+00
4.200840e+01 2.230855e+00
4.210842e+01 2.225556e+00
4.220844e+01 2.220283e+00
4.230846e+01 2.215034e+00
4.240848e+01 2.209810e+00
4.250850e+01 2.204610e+00
4.260852e+01 2.199435e+00
4.270854e+01 2.194284e+00
4.280856e+01 2.189157e+00
4.290858e+01 2.184054e+00
4.300860e+01 2.178975e+00
4.310862e+01 2.173919e+00
4.320864e+01 2.168887e+00
4.330866e+01 2.163878e+00
4.340868e+01 2.158892e+00
4.350870e+01 2.153929e+00
4.360872e+01 2.148989e+00
4.370874e+01 2.144071e+00
4.380876e+01 2.139176e+00
4.390878e+01 2.134304e+00
4.400880e+01 2.129453e+00
4.410882e+01 2.124624e+00
4.420884e+01 2.119817e+00
4.430886e+01 2.115032e+00
4.440888e+01 2.110269e+00
4.450890e+01 2.105526e+00
4.460892e+01 2.100805e+00
4.470894e+01 2.096106e+00
4.480896e+01 2.091427e+00
4.490898e+01 2.086769e+00
4.500900e+01 2.082132e+00
4.510902e+01 2.077515e+00
4.520904e+01 2.072919e+00
4.530906e+01 2.068343e+00
4.540908e+01 2.063787e+00
4.550910e+01 2.059251e+00
4.560912e+01 2.054735e+00
4.570914e+01 2.050239e+00
4.580916e+01 2.045763e+00
4.590918e+01 2.041306e+00
4.600920e+01 2.036868e+00
4.610922e+01 2.032450e+00
4.620924e+01 2.028050e+00
4.630926e+01 2.023670e+00
4.640928e+01 2.019309e+00
4.650930e+01 2.014966e+00
4.660932e+01 2.010642e+00
4.670934e+01 2.006337e+00
4.680936e+01 2.002050e+00
4.690938e+01 1.997781e+00
4.700940e+01 1.993530e+00
4.710942e+01 1.989298e+00
4.720944e+01 1.985083e+00
4.730946e+01 1.980886e+00
4.740948e+01 1.976707e+00
4.750950e+01 1.972546e+00
4.760952e+01 1.968402e+00
4.770954e+01 1.964275e+00
4.780956e+01 1.960166e+00
4.790958e+01 1.956074e+00
4.800960e+01 1.951998e+00
4.810962e+01 1.947940e+00
4.820964e+01 1.943899e+00
4.830966e+01 1.939874e+00
4.840968e+01 1.935866e+00
4.850970e+01 1.931875e+00
4.860972e+01 1.927900e+00
4.870974e+01 1.923941e+00
4.880976e+01 1.919998e+00
4.890978e+01 1.916072e+00
4.900980e+01 1.912162e+00
4.910982e+01 1.908267e+00
4.920984e+01 1.904389e+00
4.930986e+01 1.900526e+00
4.940988e+01 1.896679e+00
4.950990e+01 1.892847e+00
4.960992e+01 1.889031e+00
4.970994e+01 1.885230e+00
4.980996e+01 1.881444e+00
4.990998e+01 1.877674e+00
5.001000e+01 1.873918e+00
5.011002e+01 1.870178e+00
5.021004e+01 1.866453e+00
5.031006e+01 1.862742e+00
5.041008e+01 1.859046e+00
5.051010e+01 1.855365e+00
5.061012e+01 1.851698e+00
5.071014e+01 1.848046e+00
5.081016e+01 1.844408e+00
5.091018e+01 1.840784e+00
5.101020e+01 1.837175e+00
5.111022e+01 1.833580e+00
5.121024e+01 1.829999e+00
5.131026e+01 1.826431e+00
5.141028e+01 1.822878e+00
5.151030e+01 1.819338e+00
5.161032e+01 1.815812e+00
5.171034e+01 1.812300e+00
5.181036e+01 1.808802e+00
5.191038e+01 1.805316e+00
5.201040e+01 1.801845e+00
5.211042e+01 1.798386e+00
5.221044e+01 1.794941e+00
5.231046e+01 1.791509e+00
5.241048e+01 1.788090e+00
5.251050e+01 1.784684e+00
5.261052e+01 1.781291e+00
5.271054e+01 1.777911e+00
5.281056e+01 1.774544e+00
5.291058e+01 1.771189e+00
5.301060e+01 1.767848e+00
5.311062e+01 1.764518e+00
5.321064e+01 1.761202e+00
5.331066e+01 1.757897e+00
5.341068e+01 1.754605e+00
5.351070e+01 1.751326e+00
5.361072e+01 1.748058e+00
5.371074e+01 1.744803e+00
5.381076e+01 1.741560e+00
5.391078e+01 1.738329e+00
5.401080e+01 1.735110e+00
5.411082e+01 1.731902e+00
5.421084e+01 1.728707e+00
5.431086e+01 1.725523e+00
5.441088e+01 1.722352e+00
5.451090e+01 1.719191e+00
5.461092e+01 1.716043e+00
5.471094e+01 1.712905e+00
5.481096e+01 1.709780e+00
5.491098e+01 1.706665e+00
5.501100e+01 1.703562e+00
5.511102e+01 1.700470e+00
5.521104e+01 1.697390e+00
5.531106e+01 1.694321e+00
5.541108e+01 1.691262e+00
5.551110e+01 1.688215e+00
5.561112e+01 1.685178e+00
5.571114e+01 1.682153e+00
5.581116e+01 1.679138e+00
5.591118e+01 1.676135e+00
5.601120e+01 1.673142e+00
5.611122e+01 1.670159e+00
5.621124e+01 1.667187e+00
5.631126e+01 1.664226e+00
5.641128e+01 1.661275e+00
5.651130e+01 1.658335e+00
5.661132e+01 1.655405e+00
5.671134e+01 1.652485e+00
5.681136e+01 1.649576e+00
5.691138e+01 1.646677e+00
5.701140e+01 1.643788e+00
5.711142e+01 1.640909e+00
5.721144e+01 1.638041e+00
5.731146e+01 1.635182e+00
5.741148e+01 1.632333e+00
5.751150e+01 1.629494e+00
5.761152e+01 1.626665e+00
5.771154e+01 1.623846e+00
5.781156e+01 1.621037e+00
5.791158e+01 1.618237e+00
5.801160e+01 1.615447e+00
5.811162e+01 1.612667e+00
5.821164e+01 1.609896e+00
5.831166e+01 1.607134e+00
5.841168e+01 1.604382e+00
5.851170e+01 1.601640e+00
5.861172e+01 1.598907e+00
5.871174e+01 1.596183e+00
5.881176e+01 1.593468e+00
5.891178e+01 1.590763e+00
5.901180e+01 1.588067e+00
5.911182e+01 1.585379e+00
5.921184e+01 1.582701e+00
5.931186e+01 1.580032e+00
5.941188e+01 1.577372e+00
5.951190e+01 1.574721e+00
5.961192e+01 1.572079e+00
5.971194e+01 1.569446e+00
5.981196e+01 1.566821e+00
5.991198e+01 1.564206e+00
6.001200e+01 1.561599e+00
6.011202e+01 1.559000e+00
6.021204e+01 1.556411e+00
6.031206e+01 1.553830e+00
6.041208e+01 1.551257e+00
6.051210e+01 1.548693e+00
6.061212e+01 1.546137e+00
6.071214e+01 1.543590e+00
6.081216e+01 1.541051e+00
6.091218e+01 1.538521e+00
6.101220e+01 1.535999e+00
6.111222e+01 1.533485e+00
6.121224e+01 1.530979e+00
6.131226e+01 1.528482e+00
6.141228e+01 1.525992e+00
6.151230e+01 1.523511e+00
6.161232e+01 1.521038e+00
6.171234e+01 1.518573e+00
6.181236e+01 1.516115e+00
6.191238e+01 1.513666e+00
6.201240e+01 1.511225e+00
6.211242e+01 1.508791e+00
6.221244e+01 1.506365e+00
6.231246e+01 1.503947e+00
6.241248e+01 1.501537e+00
6.251250e+01 1.499135e+00
6.261252e+01 1.496740e+00
6.271254e+01 1.494353e+00
6.281256e+01 1.491973e+00
6.291258e+01 1.489601e+00
6.301260e+01 1.487237e+00
6.311262e+01 1.484880e+00
6.321264e+01 1.482530e+00
6.331266e+01 1.480188e+00
6.341268e+01 1.477854e+00
6.351270e+01 1.475526e+00
6.361272e+01 1.473206e+00
6.371274e+01 1.470894e+00
6.381276e+01 1.468588e+00
6.391278e+01 1.466290e+00
6.401280e+01 1.463999e+00
6.411282e+01 1.461715e+00
6.421284e+01 1.459438e+00
6.431286e+01 1.457168e+00
6.441288e+01 1.454906e+00
6.451290e+01 1.452650e+00
6.461292e+01 1.450401e+00
6.471294e+01 1.448160e+00
6.481296e+01 1.445925e+00
6.491298e+01 1.443697e+00
6.501300e+01 1.441476e+00
6.511302e+01 1.439262e+00
6.521304e+01 1.437054e+00
6.531306e+01 1.434853e+00
6.541308e+01 1.432659e+00
6.551310e+01 1.430472e+00
6.561312e+01 1.428292e+00
6.571314e+01 1.426118e+00
6.581316e+01 1.423950e+00
6.591318e+01 1.421789e+00
6.601320e+01 1.419635e+00
6.611322e+01 1.417488e+00
6.621324e+01 1.415346e+00
6.631326e+01 1.413212e+00
6.641328e+01 1.411083e+00
6.651330e+01 1.408961e+00
6.661332e+01 1.406846e+00
6.671334e+01 1.404736e+00
6.681336e+01 1.402634e+00
6.691338e+01 1.400537e+00
6.701340e+01 1.398447e+00
6.711342e+01 1.396363e+00
6.721344e+01 1.394285e+00
6.731346e+01 1.392213e+00
6.741348e+01 1.390147e+00
6.751350e+01 1.388088e+00
6.761352e+01 1.386034e+00
6.771354e+01 1.383987e+00
6.781356e+01 1.381946e+00
6.791358e+01 1.379911e+00
6.801360e+01 1.377881e+00
6.811362e+01 1.375858e+00
6.821364e+01 1.373841e+00
6.831366e+01 1.371829e+00
6.841368e+01 1.369823e+00
6.851370e+01 1.367824e+00
6.861372e+01 1.365830e+00
6.871374e+01 1.363842e+00
6.881376e+01 1.361859e+00
6.891378e+01 1.359883e+00
6.901380e+01 1.357912e+00
6.911382e+01 1.355947e+00
6.921384e+01 1.353987e+00
6.931386e+01 1.352034e+00
6.941388e+01 1.350085e+00
6.951390e+01 1.348143e+00
6.961392e+01 1.346206e+00
6.971394e+01 1.344274e+00
6.981396e+01 1.342348e+00
6.991398e+01 1.340428e+00
7.001400e+01 1.338513e+00
7.011402e+01 1.336604e+00
7.021404e+01 1.334700e+00
7.031406e+01 1.332801e+00
7.041408e+01 1.330908e+00
7.051410e+01 1.329020e+00
7.061412e+01 1.327138e+00
7.071414e+01 1.325261e+00
7.081416e+01 1.323389e+00
7.091418e+01 1.321522e+00
7.101420e+01 1.319661e+00
7.111422e+01 1.317805e+00
7.121424e+01 1.315954e+00
7.131426e+01 1.314108e+00
7.141428e+01 1.312268e+00
7.151430e+01 1.310433e+00
7.161432e+01 1.308602e+00
7.171434e+01 1.306777e+00
7.181436e+01 1.304957e+00
7.191438e+01 1.303142e+00
7.201440e+01 1.301332e+00
7.211442e+01 1.299527e+00
7.221444e+01 1.297727e+00
7.231446e+01 1.295933e+00
7.241448e+01 1.294143e+00
7.251450e+01 1.292358e+00
7.261452e+01 1.290577e+00
7.271454e+01 1.288802e+00
7.281456e+01 1.287032e+00
7.291458e+01 1.285266e+00
7.301460e+01 1.283506e+00
7.311462e+01 1.281750e+00
7.321464e+01 1.279999e+00
7.331466e+01 1.278253e+00
7.341468e+01 1.276511e+00
7.351470e+01 1.274774e+00
7.361472e+01 1.273042e+00
7.371474e+01 1.271315e+00
7.381476e+01 1.269592e+00
7.391478e+01 1.267874e+00
7.401480e+01 1.266161e+00
7.411482e+01 1.264452e+00
7.421484e+01 1.262748e+00
7.431486e+01 1.261049e+00
7.441488e+01 1.259354e+00
7.451490e+01 1.257663e+00
7.461492e+01 1.255978e+00
7.471494e+01 1.254296e+00
7.481496e+01 1.252619e+00
7.491498e+01 1.250947e+00
7.501500e+01 1.249279e+00
7.511502e+01 1.247616e+00
7.521504e+01 1.245956e+00
7.531506e+01 1.244302e+00
7.541508e+01 1.242652e+00
7.551510e+01 1.241006e+00
7.561512e+01 1.239364e+00
7.571514e+01 1.237727e+00
7.581516e+01 1.236094e+00
7.591518e+01 1.234465e+00
7.601520e+01 1.232841e+00
7.611522e+01 1.231221e+00
7.621524e+01 1.229605e+00
7.631526e+01 1.227994e+00
7.641528e+01 1.226386e+00
7.651530e+01 1.224783e+00
7.661532e+01 1.223184e+00
7.671534e+01 1.221590e+00
