# radius(km)    Ye
0.000000e+00 2.500000e-01
1.000200e-01 2.500000e-01
2.000400e-01 2.500000e-01
3.000600e-01 2.499999e-01
4.000800e-01 2.499999e-01
5.001000e-01 2.499999e-01
6.001200e-01 2.499998e-01
7.001400e-01 2.499998e-01
8.001600e-01 2.499996e-01
9.001800e-01 2.499995e-01
1.000200e+00 2.499993e-01
1.100220e+00 2.499990e-01
1.200240e+00 2.499986e-01
1.300260e+00 2.499980e-01
1.400280e+00 2.499972e-01
1.500300e+00 2.499961e-01
1.600320e+00 2.499946e-01
1.700340e+00 2.499926e-01
1.800360e+00 2.499899e-01
1.900380e+00 2.499863e-01
2.000400e+00 2.499815e-01
2.100420e+00 2.499750e-01
2.200440e+00 2.499666e-01
2.300460e+00 2.499554e-01
2.400480e+00 2.499409e-01
2.500500e+00 2.499220e-01
2.600520e+00 2.498975e-01
2.700540e+00 2.498661e-01
2.800560e+00 2.498259e-01
2.900580e+00 2.497747e-01
3.000600e+00 2.497100e-01
3.100620e+00 2.496286e-01
3.200640e+00 2.495266e-01
3.300660e+00 2.493997e-01
3.400680e+00 2.492426e-01
3.500700e+00 2.490490e-01
3.600720e+00 2.488121e-01
3.700740e+00 2.485234e-01
3.800760e+00 2.481738e-01
3.900780e+00 2.477527e-01
4.000800e+00 2.472483e-01
4.100820e+00 2.466474e-01
4.200840e+00 2.459357e-01
4.300860e+00 2.450976e-01
4.400880e+00 2.441161e-01
4.500900e+00 2.429733e-01
4.600920e+00 2.416505e-01
4.700940e+00 2.401282e-01
4.800960e+00 2.383865e-01
4.900980e+00 2.364056e-01
5.001000e+00 2.341664e-01
5.101020e+00 2.316503e-01
5.201040e+00 2.288405e-01
5.301060e+00 2.257221e-01
5.401080e+00 2.222832e-01
5.501100e+00 2.185150e-01
5.601120e+00 2.144130e-01
5.701140e+00 2.099773e-01
5.801160e+00 2.052133e-01
5.901180e+00 2.001323e-01
6.001200e+00 1.947518e-01
6.101220e+00 1.890963e-01
6.201240e+00 1.831968e-01
6.301260e+00 1.770914e-01
6.401280e+00 1.708251e-01
6.501300e+00 1.644492e-01
6.601320e+00 1.580211e-01
6.701340e+00 1.516034e-01
6.801360e+00 1.452632e-01
6.901380e+00 1.390706e-01
7.001400e+00 1.330981e-01
7.101420e+00 1.274188e-01
7.201440e+00 1.221048e-01
7.301460e+00 1.172263e-01
7.401480e+00 1.128495e-01
7.501500e+00 1.090353e-01
7.601520e+00 1.058378e-01
7.701540e+00 1.033035e-01
7.801560e+00 1.014694e-01
7.901580e+00 1.003628e-01
8.001600e+00 1.000000e-01
8.101620e+00 1.000000e-01
8.201640e+00 1.000000e-01
8.301660e+00 1.000000e-01
8.401680e+00 1.000000e-01
8.501700e+00 1.000000e-01
8.601720e+00 1.000000e-01
8.701740e+00 1.000000e-01
8.801760e+00 1.000000e-01
8.901780e+00 1.000000e-01
9.001800e+00 1.000000e-01
9.101820e+00 1.000000e-01
9.201840e+00 1.000000e-01
9.301860e+00 1.000000e-01
9.401880e+00 1.000000e-01
9.501900e+00 1.000000e-01
9.601920e+00 1.000000e-01
9.701940e+00 1.000000e-01
9.801960e+00 1.000000e-01
9.901980e+00 1.000000e-01
1.000200e+01 1.000000e-01
1.010202e+01 1.000000e-01
1.020204e+01 1.000000e-01
1.030206e+01 1.000000e-01
1.040208e+01 1.000000e-01
1.050210e+01 1.000000e-01
1.060212e+01 1.000000e-01
1.070214e+01 1.000000e-01
1.080216e+01 1.000000e-01
1.090218e+01 1.000000e-01
1.100220e+01 1.000000e-01
1.110222e+01 1.000000e-01
1.120224e+01 1.000000e-01
1.130226e+01 1.000000e-01
1.140228e+01 1.000000e-01
1.150230e+01 1.000000e-01
1.160232e+01 1.000000e-01
1.170234e+01 1.000000e-01
1.180236e+01 1.000000e-01
1.190238e+01 1.000000e-01
1.200240e+01 1.000000e-01
1.210242e+01 1.000000e-01
1.220244e+01 1.000000e-01
1.230246e+01 1.000000e-01
1.240248e+01 1.000000e-01
1.250250e+01 1.000000e-01
1.260252e+01 1.000000e-01
1.270254e+01 1.000000e-01
1.280256e+01 1.000000e-01
1.290258e+01 1.000000e-01
1.300260e+01 1.000000e-01
1.310262e+01 1.000000e-01
1.320264e+01 1.000000e-01
1.330266e+01 1.000000e-01
1.340268e+01 1.000000e-01
1.350270e+01 1.000000e-01
1.360272e+01 1.000000e-01
1.370274e+01 1.000000e-01
1.380276e+01 1.000000e-01
1.390278e+01 1.000000e-01
1.400280e+01 1.000000e-01
1.410282e+01 1.000000e-01
1.420284e+01 1.000000e-01
1.430286e+01 1.000000e-01
1.440288e+01 1.000000e-01
1.450290e+01 1.000000e-01
1.460292e+01 1.000000e-01
1.470294e+01 1.000000e-01
1.480296e+01 1.000000e-01
1.490298e+01 1.000000e-01
1.500300e+01 1.000000e-01
1.510302e+01 1.000000e-01
1.520304e+01 1.000001e-01
1.530306e+01 1.000001e-01
1.540308e+01 1.000001e-01
1.550310e+01 1.000002e-01
1.560312e+01 1.000002e-01
1.570314e+01 1.000003e-01
1.580316e+01 1.000004e-01
1.590318e+01 1.000005e-01
1.600320e+01 1.000007e-01
1.610322e+01 1.000009e-01
1.620324e+01 1.000013e-01
1.630326e+01 1.000017e-01
1.640328e+01 1.000022e-01
1.650330e+01 1.000029e-01
1.660332e+01 1.000038e-01
1.670334e+01 1.000049e-01
1.680336e+01 1.000064e-01
1.690338e+01 1.000084e-01
1.700340e+01 1.000108e-01
1.710342e+01 1.000139e-01
1.720344e+01 1.000179e-01
1.730346e+01 1.000230e-01
1.740348e+01 1.000293e-01
1.750350e+01 1.000373e-01
1.760352e+01 1.000474e-01
1.770354e+01 1.000599e-01
1.780356e+01 1.000756e-01
1.790358e+01 1.000950e-01
1.800360e+01 1.001191e-01
1.810362e+01 1.001487e-01
1.820364e+01 1.001851e-01
1.830366e+01 1.002297e-01
1.840368e+01 1.002842e-01
1.850370e+01 1.003505e-01
1.860372e+01 1.004308e-01
1.870374e+01 1.005278e-01
1.880376e+01 1.006446e-01
1.890378e+01 1.007847e-01
1.900380e+01 1.009523e-01
1.910382e+01 1.011519e-01
1.920384e+01 1.013889e-01
1.930386e+01 1.016693e-01
1.940388e+01 1.020000e-01
1.950390e+01 1.023885e-01
1.960392e+01 1.028433e-01
1.970394e+01 1.033739e-01
1.980396e+01 1.039907e-01
1.990398e+01 1.047052e-01
2.000400e+01 1.055300e-01
2.010402e+01 1.064785e-01
2.020404e+01 1.075654e-01
2.030406e+01 1.088065e-01
2.040408e+01 1.102184e-01
2.050410e+01 1.118187e-01
2.060412e+01 1.136260e-01
2.070414e+01 1.156595e-01
2.080416e+01 1.179389e-01
2.090418e+01 1.204844e-01
2.100420e+01 1.233164e-01
2.110422e+01 1.264551e-01
2.120424e+01 1.299203e-01
2.130426e+01 1.337312e-01
2.140428e+01 1.379061e-01
2.150430e+01 1.424614e-01
2.160432e+01 1.474122e-01
2.170434e+01 1.527711e-01
2.180436e+01 1.585479e-01
2.190438e+01 1.647495e-01
2.200440e+01 1.713790e-01
2.210442e+01 1.784359e-01
2.220444e+01 1.859150e-01
2.230446e+01 1.938064e-01
2.240448e+01 2.020954e-01
2.250450e+01 2.107616e-01
2.260452e+01 2.197793e-01
2.270454e+01 2.291173e-01
2.280456e+01 2.387384e-01
2.290458e+01 2.485999e-01
2.300460e+01 2.586537e-01
2.310462e+01 2.688463e-01
2.320464e+01 2.791193e-01
2.330466e+01 2.894101e-01
2.340468e+01 2.996520e-01
2.350470e+01 3.097750e-01
2.360472e+01 3.197068e-01
2.370474e+01 3.293734e-01
2.380476e+01 3.386999e-01
2.390478e+01 3.476117e-01
2.400480e+01 3.560352e-01
2.410482e+01 3.638992e-01
2.420484e+01 3.711353e-01
2.430486e+01 3.776795e-01
2.440488e+01 3.834727e-01
2.450490e+01 3.884618e-01
2.460492e+01 3.926006e-01
2.470494e+01 3.958501e-01
2.480496e+01 3.981796e-01
2.490498e+01 3.995669e-01
2.500500e+01 4.001000e-01
2.510502e+01 4.021004e-01
2.520504e+01 4.041008e-01
2.530506e+01 4.061012e-01
2.540508e+01 4.081016e-01
2.550510e+01 4.101020e-01
2.560512e+01 4.121024e-01
2.570514e+01 4.141028e-01
2.580516e+01 4.161032e-01
2.590518e+01 4.181036e-01
2.600520e+01 4.201040e-01
2.610522e+01 4.221044e-01
2.620524e+01 4.241048e-01
2.630526e+01 4.261052e-01
2.640528e+01 4.281056e-01
2.650530e+01 4.301060e-01
2.660532e+01 4.321064e-01
2.670534e+01 4.341068e-01
2.680536e+01 4.361072e-01
2.690538e+01 4.381076e-01
2.700540e+01 4.401080e-01
2.710542e+01 4.421084e-01
2.720544e+01 4.441088e-01
2.730546e+01 4.461092e-01
2.740548e+01 4.481096e-01
2.750550e+01 4.501100e-01
2.760552e+01 4.521104e-01
2.770554e+01 4.541108e-01
2.780556e+01 4.561112e-01
2.790558e+01 4.581116e-01
2.800560e+01 4.601120e-01
2.810562e+01 4.621124e-01
2.820564e+01 4.641128e-01
2.830566e+01 4.661132e-01
2.840568e+01 4.681136e-01
2.850570e+01 4.701140e-01
2.860572e+01 4.721144e-01
2.870574e+01 4.741148e-01
2.880576e+01 4.761152e-01
2.890578e+01 4.781156e-01
2.900580e+01 4.801160e-01
2.910582e+01 4.821164e-01
2.920584e+01 4.841168e-01
2.930586e+01 4.861172e-01
2.940588e+01 4.881176e-01
2.950590e+01 4.901180e-01
2.960592e+01 4.921184e-01
2.970594e+01 4.941188e-01
2.980596e+01 4.961192e-01
2.990598e+01 4.981196e-01
3.000600e+01 5.000000e-01
3.010602e+01 5.000000e-01
3.020604e+01 5.000000e-01
3.030606e+01 5.000000e-01
3.040608e+01 5.000000e-01
3.050610e+01 5.000000e-01
3.060612e+01 5.000000e-01
3.070614e+01 5.000000e-01
3.080616e+01 5.000000e-01
3.090618e+01 5.000000e-01
3.100620e+01 5.000000e-01
3.110622e+01 5.000000e-01
3.120624e+01 5.000000e-01
3.130626e+01 5.000000e-01
3.140628e+01 5.000000e-01
3.150630e+01 5.000000e-01
3.160632e+01 5.000000e-01
3.170634e+01 5.000000e-01
3.180636e+01 5.000000e-01
3.190638e+01 5.000000e-01
3.200640e+01 5.000000e-01
3.210642e+01 5.000000e-01
3.220644e+01 5.000000e-01
3.230646e+01 5.000000e-01
3.240648e+01 5.000000e-01
3.250650e+01 5.000000e-01
3.260652e+01 5.000000e-01
3.270654e+01 5.000000e-01
3.280656e+01 5.000000e-01
3.290658e+01 5.000000e-01
3.300660e+01 5.000000e-01
3.310662e+01 5.000000e-01
3.320664e+01 5.000000e-01
3.330666e+01 5.000000e-01
3.340668e+01 5.000000e-01
3.350670e+01 5.000000e-01
3.360672e+01 5.000000e-01
3.370674e+01 5.000000e-01
3.380676e+01 5.000000e-01
3.390678e+01 5.000000e-01
3.400680e+01 5.000000e-01
3.410682e+01 5.000000e-01
3.420684e+01 5.000000e-01
3.430686e+01 5.000000e-01
3.440688e+01 5.000000e-01
3.450690e+01 5.000000e-01
3.460692e+01 5.000000e-01
3.470694e+01 5.000000e-01
3.480696e+01 5.000000e-01
3.490698e+01 5.000000e-01
3.500700e+01 5.000000e-01
3.510702e+01 5.000000e-01
3.520704e+01 5.000000e-01
3.530706e+01 5.000000e-01
3.540708e+01 5.000000e-01
3.550710e+01 5.000000e-01
3.560712e+01 5.000000e-01
3.570714e+01 5.000000e-01
3.580716e+01 5.000000e-01
3.590718e+01 5.000000e-01
3.600720e+01 5.000000e-01
3.610722e+01 5.000000e-01
3.620724e+01 5.000000e-01
3.630726e+01 5.000000e-01
3.640728e+01 5.000000e-01
3.650730e+01 5.000000e-01
3.660732e+01 5.000000e-01
3.670734e+01 5.000000e-01
3.680736e+01 5.000000e-01
3.690738e+01 5.000000e-01
3.700740e+01 5.000000e-01
3.710742e+01 5.000000e-01
3.720744e+01 5.000000e-01
3.730746e+01 5.000000e-01
3.740748e+01 5.000000e-01
3.750750e+01 5.000000e-01
3.760752e+01 5.000000e-01
3.770754e+01 5.000000e-01
3.780756e+01 5.000000e-01
3.790758e+01 5.000000e-01
3.800760e+01 5.000000e-01
3.810762e+01 5.000000e-01
3.820764e+01 5.000000e-01
3.830766e+01 5.000000e-01
3.840768e+01 5.000000e-01
3.850770e+01 5.000000e-01
3.860772e+01 5.000000e-01
3.870774e+01 5.000000e-01
3.880776e+01 5.000000e-01
3.890778e+01 5.000000e-01
3.900780e+01 5.000000e-01
3.910782e+01 5.000000e-01
3.920784e+01 5.000000e-01
3.930786e+01 5.000000e-01
3.940788e+01 5.000000e-01
3.950790e+01 5.000000e-01
3.960792e+01 5.000000e-01
3.970794e+01 5.000000e-01
3.980796e+01 5.000000e-01
3.990798e+01 5.000000e-01
4.000800e+01 5.000000e-01
4.010802e+01 5.000000e-01
4.020804e+01 5.000000e-01
4.030806e+01 5.000000e-01
4.040808e+01 5.000000e-01
4.050810e+01 5.000000e-01
4.060812e+01 5.000000e-01
4.070814e+01 5.000000e-01
4.080816e+01 5.000000e-01
4.090818e+01 5.000000e-01
4.100820e+01 5.000000e-01
4.110822e+01 5.000000e-01
4.120824e+01 5.000000e-01
4.130826e+01 5.000000e-01
4.140828e+01 5.000000e-01
4.150830e+01 5.000000e-01
4.160832e+01 5.000000e-01
4.170834e+01 5.000000e-01
4.180836e+01 5.000000e-01
4.190838e+01 5.000000e-01
4.200840e+01 5.000000e-01
4.210842e+01 5.000000e-01
4.220844e+01 5.000000e-01
4.230846e+01 5.000000e-01
4.240848e+01 5.000000e-01
4.250850e+01 5.000000e-01
4.260852e+01 5.000000e-01
4.270854e+01 5.000000e-01
4.280856e+01 5.000000e-01
4.290858e+01 5.000000e-01
4.300860e+01 5.000000e-01
4.310862e+01 5.000000e-01
4.320864e+01 5.000000e-01
4.330866e+01 5.000000e-01
4.340868e+01 5.000000e-01
4.350870e+01 5.000000e-01
4.360872e+01 5.000000e-01
4.370874e+01 5.000000e-01
4.380876e+01 5.000000e-01
4.390878e+01 5.000000e-01
4.400880e+01 5.000000e-01
4.410882e+01 5.000000e-01
4.420884e+01 5.000000e-01
4.430886e+01 5.000000e-01
4.440888e+01 5.000000e-01
4.450890e+01 5.000000e-01
4.460892e+01 5.000000e-01
4.470894e+01 5.000000e-01
4.480896e+01 5.000000e-01
4.490898e+01 5.000000e-01
4.500900e+01 5.000000e-01
4.510902e+01 5.000000e-01
4.520904e+01 5.000000e-01
4.530906e+01 5.000000e-01
4.540908e+01 5.000000e-01
4.550910e+01 5.000000e-01
4.560912e+01 5.000000e-01
4.570914e+01 5.000000e-01
4.580916e+01 5.000000e-01
4.590918e+01 5.000000e-01
4.600920e+01 5.000000e-01
4.610922e+01 5.000000e-01
4.620924e+01 5.000000e-01
4.630926e+01 5.000000e-01
4.640928e+01 5.000000e-01
4.650930e+01 5.000000e-01
4.660932e+01 5.000000e-01
4.670934e+01 5.000000e-01
4.680936e+01 5.000000e-01
4.690938e+01 5.000000e-01
4.700940e+01 5.000000e-01
4.710942e+01 5.000000e-01
4.720944e+01 5.000000e-01
4.730946e+01 5.000000e-01
4.740948e+01 5.000000e-01
4.750950e+01 5.000000e-01
4.760952e+01 5.000000e-01
4.770954e+01 5.000000e-01
4.780956e+01 5.000000e-01
4.790958e+01 5.000000e-01
4.800960e+01 5.000000e-01
4.810962e+01 5.000000e-01
4.820964e+01 5.000000e-01
4.830966e+01 5.000000e-01
4.840968e+01 5.000000e-01
4.850970e+01 5.000000e-01
4.860972e+01 5.000000e-01
4.870974e+01 5.000000e-01
4.880976e+01 5.000000e-01
4.890978e+01 5.000000e-01
4.900980e+01 5.000000e-01
4.910982e+01 5.000000e-01
4.920984e+01 5.000000e-01
4.930986e+01 5.000000e-01
4.940988e+01 5.000000e-01
4.950990e+01 5.000000e-01
4.960992e+01 5.000000e-01
4.970994e+01 5.000000e-01
4.980996e+01 5.000000e-01
4.990998e+01 5.000000e-01
5.001000e+01 5.000000e-01
5.011002e+01 5.000000e-01
5.021004e+01 5.000000e-01
5.031006e+01 5.000000e-01
5.041008e+01 5.000000e-01
5.051010e+01 5.000000e-01
5.061012e+01 5.000000e-01
5.071014e+01 5.000000e-01
5.081016e+01 5.000000e-01
5.091018e+01 5.000000e-01
5.101020e+01 5.000000e-01
5.111022e+01 5.000000e-01
5.121024e+01 5.000000e-01
5.131026e+01 5.000000e-01
5.141028e+01 5.000000e-01
5.151030e+01 5.000000e-01
5.161032e+01 5.000000e-01
5.171034e+01 5.000000e-01
5.181036e+01 5.000000e-01
5.191038e+01 5.000000e-01
5.201040e+01 5.000000e-01
5.211042e+01 5.000000e-01
5.221044e+01 5.000000e-01
5.231046e+01 5.000000e-01
5.241048e+01 5.000000e-01
5.251050e+01 5.000000e-01
5.261052e+01 5.000000e-01
5.271054e+01 5.000000e-01
5.281056e+01 5.000000e-01
5.291058e+01 5.000000e-01
5.301060e+01 5.000000e-01
5.311062e+01 5.000000e-01
5.321064e+01 5.000000e-01
5.331066e+01 5.000000e-01
5.341068e+01 5.000000e-01
5.351070e+01 5.000000e-01
5.361072e+01 5.000000e-01
5.371074e+01 5.000000e-01
5.381076e+01 5.000000e-01
5.391078e+01 5.000000e-01
5.401080e+01 5.000000e-01
5.411082e+01 5.000000e-01
5.421084e+01 5.000000e-01
5.431086e+01 5.000000e-01
5.441088e+01 5.000000e-01
5.451090e+01 5.000000e-01
5.461092e+01 5.000000e-01
5.471094e+01 5.000000e-01
5.481096e+01 5.000000e-01
5.491098e+01 5.000000e-01
5.501100e+01 5.000000e-01
5.511102e+01 5.000000e-01
5.521104e+01 5.000000e-01
5.531106e+01 5.000000e-01
5.541108e+01 5.000000e-01
5.551110e+01 5.000000e-01
5.561112e+01 5.000000e-01
5.571114e+01 5.000000e-01
5.581116e+01 5.000000e-01
5.591118e+01 5.000000e-01
5.601120e+01 5.000000e-01
5.611122e+01 5.000000e-01
5.621124e+01 5.000000e-01
5.631126e+01 5.000000e-01
5.641128e+01 5.000000e-01
5.651130e+01 5.000000e-01
5.661132e+01 5.000000e-01
5.671134e+01 5.000000e-01
5.681136e+01 5.000000e-01
5.691138e+01 5.000000e-01
5.701140e+01 5.000000e-01
5.711142e+01 5.000000e-01
5.721144e+01 5.000000e-01
5.731146e+01 5.000000e-01
5.741148e+01 5.000000e-01
5.751150e+01 5.000000e-01
5.761152e+01 5.000000e-01
5.771154e+01 5.000000e-01
5.781156e+01 5.000000e-01
5.791158e+01 5.000000e-01
5.801160e+01 5.000000e-01
5.811162e+01 5.000000e-01
5.821164e+01 5.000000e-01
5.831166e+01 5.000000e-01
5.841168e+01 5.000000e-01
5.851170e+01 5.000000e-01
5.861172e+01 5.000000e-01
5.871174e+01 5.000000e-01
5.881176e+01 5.000000e-01
5.891178e+01 5.000000e-01
5.901180e+01 5.000000e-01
5.911182e+01 5.000000e-01
5.921184e+01 5.000000e-01
5.931186e+01 5.000000e-01
5.941188e+01 5.000000e-01
5.951190e+01 5.000000e-01
5.961192e+01 5.000000e-01
5.971194e+01 5.000000e-01
5.981196e+01 5.000000e-01
5.991198e+01 5.000000e-01
6.001200e+01 5.000000e-01
6.011202e+01 5.000000e-01
6.021204e+01 5.000000e-01
6.031206e+01 5.000000e-01
6.041208e+01 5.000000e-01
6.051210e+01 5.000000e-01
6.061212e+01 5.000000e-01
6.071214e+01 5.000000e-01
6.081216e+01 5.000000e-01
6.091218e+01 5.000000e-01
6.101220e+01 5.000000e-01
6.111222e+01 5.000000e-01
6.121224e+01 5.000000e-01
6.131226e+01 5.000000e-01
6.141228e+01 5.000000e-01
6.151230e+01 5.000000e-01
6.161232e+01 5.000000e-01
6.171234e+01 5.000000e-01
6.181236e+01 5.000000e-01
6.191238e+01 5.000000e-01
6.201240e+01 5.000000e-01
6.211242e+01 5.000000e-01
6.221244e+01 5.000000e-01
6.231246e+01 5.000000e-01
6.241248e+01 5.000000e-01
6.251250e+01 5.000000e-01
6.261252e+01 5.000000e-01
6.271254e+01 5.000000e-01
6.281256e+01 5.000000e-01
6.291258e+01 5.000000e-01
6.301260e+01 5.000000e-01
6.311262e+01 5.000000e-01
6.321264e+01 5.000000e-01
6.331266e+01 5.000000e-01
6.341268e+01 5.000000e-01
6.351270e+01 5.000000e-01
6.361272e+01 5.000000e-01
6.371274e+01 5.000000e-01
6.381276e+01 5.000000e-01
6.391278e+01 5.000000e-01
6.401280e+01 5.000000e-01
6.411282e+01 5.000000e-01
6.421284e+01 5.000000e-01
6.431286e+01 5.000000e-01
6.441288e+01 5.000000e-01
6.451290e+01 5.000000e-01
6.461292e+01 5.000000e-01
6.471294e+01 5.000000e-01
6.481296e+01 5.000000e-01
6.491298e+01 5.000000e-01
6.501300e+01 5.000000e-01
6.511302e+01 5.000000e-01
6.521304e+01 5.000000e-01
6.531306e+01 5.000000e-01
6.541308e+01 5.000000e-01
6.551310e+01 5.000000e-01
6.561312e+01 5.000000e-01
6.571314e+01 5.000000e-01
6.581316e+01 5.000000e-01
6.591318e+01 5.000000e-01
6.601320e+01 5.000000e-01
6.611322e+01 5.000000e-01
6.621324e+01 5.000000e-01
6.631326e+01 5.000000e-01
6.641328e+01 5.000000e-01
6.651330e+01 5.000000e-01
6.661332e+01 5.000000e-01
6.671334e+01 5.000000e-01
6.681336e+01 5.000000e-01
6.691338e+01 5.000000e-01
6.701340e+01 5.000000e-01
6.711342e+01 5.000000e-01
6.721344e+01 5.000000e-01
6.731346e+01 5.000000e-01
6.741348e+01 5.000000e-01
6.751350e+01 5.000000e-01
6.761352e+01 5.000000e-01
6.771354e+01 5.000000e-01
6.781356e+01 5.000000e-01
6.791358e+01 5.000000e-01
6.801360e+01 5.000000e-01
6.811362e+01 5.000000e-01
6.821364e+01 5.000000e-01
6.831366e+01 5.000000e-01
6.841368e+01 5.000000e-01
6.851370e+01 5.000000e-01
6.861372e+01 5.000000e-01
6.871374e+01 5.000000e-01
6.881376e+01 5.000000e-01
6.891378e+01 5.000000e-01
6.901380e+01 5.000000e-01
6.911382e+01 5.000000e-01
6.921384e+01 5.000000e-01
6.931386e+01 5.000000e-01
6.941388e+01 5.000000e-01
6.951390e+01 5.000000e-01
6.961392e+01 5.000000e-01
6.971394e+01 5.000000e-01
6.981396e+01 5.000000e-01
6.991398e+01 5.000000e-01
7.001400e+01 5.000000e-01
7.011402e+01 5.000000e-01
7.021404e+01 5.000000e-01
7.031406e+01 5.000000e-01
7.041408e+01 5.000000e-01
7.051410e+01 5.000000e-01
7.061412e+01 5.000000e-01
7.071414e+01 5.000000e-01
7.081416e+01 5.000000e-01
7.091418e+01 5.000000e-01
7.101420e+01 5.000000e-01
7.111422e+01 5.000000e-01
7.121424e+01 5.000000e-01
7.131426e+01 5.000000e-01
7.141428e+01 5.000000e-01
7.151430e+01 5.000000e-01
7.161432e+01 5.000000e-01
7.171434e+01 5.000000e-01
7.181436e+01 5.000000e-01
7.191438e+01 5.000000e-01
7.201440e+01 5.000000e-01
7.211442e+01 5.000000e-01
7.221444e+01 5.000000e-01
7.231446e+01 5.000000e-01
7.241448e+01 5.000000e-01
7.251450e+01 5.000000e-01
7.261452e+01 5.000000e-01
7.271454e+01 5.000000e-01
7.281456e+01 5.000000e-01
7.291458e+01 5.000000e-01
7.301460e+01 5.000000e-01
7.311462e+01 5.000000e-01
7.321464e+01 5.000000e-01
7.331466e+01 5.000000e-01
7.341468e+01 5.000000e-01
7.351470e+01 5.000000e-01
7.361472e+01 5.000000e-01
7.371474e+01 5.000000e-01
7.381476e+01 5.000000e-01
7.391478e+01 5.000000e-01
7.401480e+01 5.000000e-01
7.411482e+01 5.000000e-01
7.421484e+01 5.000000e-01
7.431486e+01 5.000000e-01
7.441488e+01 5.000000e-01
7.451490e+01 5.000000e-01
7.461492e+01 5.000000e-01
7.471494e+01 5.000000e-01
7.481496e+01 5.000000e-01
7.491498e+01 5.000000e-01
7.501500e+01 5.000000e-01
7.511502e+01 5.000000e-01
7.521504e+01 5.000000e-01
7.531506e+01 5.000000e-01
7.541508e+01 5.000000e-01
7.551510e+01 5.000000e-01
7.561512e+01 5.000000e-01
7.571514e+01 5.000000e-01
7.581516e+01 5.000000e-01
7.591518e+01 5.000000e-01
7.601520e+01 5.000000e-01
7.611522e+01 5.000000e-01
7.621524e+01 5.000000e-01
7.631526e+01 5.000000e-01
7.641528e+01 5.000000e-01
7.651530e+01 5.000000e-01
7.661532e+01 5.000000e-01
7.671534e+01 5.000000e-01
